VGS(0) IDS(0) IGS(0) VDS(0) VGS(10) IDS(10) IGS(10) VDS(10)
0.00000e+00 -6.12073e-11 -6.11479e-11 2.00000e-01 1.00000e+01 1.40243e-02 1.40313e-02 -2.00000e-01
2.00000e-01 1.94705e-08 1.93165e-08 2.00000e-01 9.80000e+00 1.28020e-02 1.27808e-02 -2.00000e-01
4.00000e-01 7.94510e-08 4.55018e-08 2.00000e-01 9.60000e+00 1.14253e-02 1.14027e-02 -2.00000e-01
6.00000e-01 7.09881e-08 7.05297e-08 2.00000e-01 9.40000e+00 1.00600e-02 1.00384e-02 -2.00000e-01
8.00000e-01 9.92492e-08 1.03564e-07 2.00000e-01 9.20000e+00 8.70453e-03 8.69498e-03 -2.00000e-01
1.00000e+00 1.62485e-07 1.39555e-07 2.00000e-01 9.00000e+00 7.50046e-03 7.48251e-03 -2.00000e-01
1.20000e+00 2.04709e-07 1.84538e-07 2.00000e-01 8.80000e+00 6.35647e-03 6.34137e-03 -2.00000e-01
1.40000e+00 2.45767e-07 2.22661e-07 2.00000e-01 8.60000e+00 5.31308e-03 5.29985e-03 -2.00000e-01
1.60000e+00 3.00255e-07 2.71786e-07 2.00000e-01 8.40000e+00 4.37986e-03 4.36910e-03 -2.00000e-01
1.80000e+00 3.69175e-07 3.50678e-07 2.00000e-01 8.20000e+00 3.55749e-03 3.54887e-03 -2.00000e-01
2.00000e+00 4.43383e-07 4.26280e-07 2.00000e-01 8.00000e+00 2.84778e-03 2.84065e-03 -2.00000e-01
2.20000e+00 5.07630e-07 4.96541e-07 2.00000e-01 7.80000e+00 2.24619e-03 2.24084e-03 -2.00000e-01
2.40000e+00 5.90003e-07 5.75872e-07 2.00000e-01 7.60000e+00 1.74552e-03 1.74173e-03 -2.00000e-01
2.60000e+00 6.82604e-07 6.65244e-07 2.00000e-01 7.40000e+00 1.33524e-03 1.33168e-03 -2.00000e-01
2.80000e+00 7.97617e-07 7.73059e-07 2.00000e-01 7.20000e+00 1.00672e-03 1.00427e-03 -2.00000e-01
3.00000e+00 8.99614e-07 9.12124e-07 2.00000e-01 7.00000e+00 7.45094e-04 7.44168e-04 -2.00000e-01
3.20000e+00 9.97831e-07 9.76689e-07 2.00000e-01 6.80000e+00 5.46025e-04 5.44464e-04 -2.00000e-01
3.40000e+00 1.11708e-06 1.12775e-06 2.00000e-01 6.60000e+00 3.92979e-04 3.91671e-04 -2.00000e-01
3.60000e+00 1.35977e-06 1.34185e-06 2.00000e-01 6.40000e+00 2.78762e-04 2.77620e-04 -2.00000e-01
3.80000e+00 1.69585e-06 1.68871e-06 2.00000e-01 6.20000e+00 1.94707e-04 1.93739e-04 -2.00000e-01
4.00000e+00 2.23882e-06 2.25398e-06 2.00000e-01 6.00000e+00 1.33800e-04 1.32964e-04 -2.00000e-01
4.20000e+00 3.11737e-06 3.15372e-06 2.00000e-01 5.80000e+00 8.98698e-05 8.96919e-05 -2.00000e-01
4.40000e+00 4.59340e-06 4.64749e-06 2.00000e-01 5.60000e+00 6.04513e-05 5.98210e-05 -2.00000e-01
4.60000e+00 6.99359e-06 7.12952e-06 2.00000e-01 5.40000e+00 3.98775e-05 3.93610e-05 -2.00000e-01
4.80000e+00 1.13098e-05 1.13612e-05 2.00000e-01 5.20000e+00 2.60907e-05 2.56755e-05 -2.00000e-01
5.00000e+00 1.75442e-05 1.78751e-05 2.00000e-01 5.00000e+00 1.70611e-05 1.67450e-05 -2.00000e-01
5.20000e+00 2.74337e-05 2.78558e-05 2.00000e-01 4.80000e+00 1.11693e-05 1.09486e-05 -2.00000e-01
5.40000e+00 4.22488e-05 4.29817e-05 2.00000e-01 4.60000e+00 7.31753e-06 7.28214e-06 -2.00000e-01
5.60000e+00 6.41419e-05 6.47812e-05 2.00000e-01 4.40000e+00 5.13914e-06 5.08402e-06 -2.00000e-01
5.80000e+00 9.54350e-05 9.61272e-05 2.00000e-01 4.20000e+00 3.60821e-06 3.57783e-06 -2.00000e-01
6.00000e+00 1.40080e-04 1.40163e-04 2.00000e-01 4.00000e+00 2.68198e-06 2.65950e-06 -2.00000e-01
6.20000e+00 1.99807e-04 2.00662e-04 2.00000e-01 3.80000e+00 2.02464e-06 2.01373e-06 -2.00000e-01
6.40000e+00 2.81516e-04 2.82352e-04 2.00000e-01 3.60000e+00 1.61401e-06 1.62453e-06 -2.00000e-01
6.60000e+00 3.90979e-04 3.91937e-04 2.00000e-01 3.40000e+00 1.28149e-06 1.31034e-06 -2.00000e-01
6.80000e+00 5.33542e-04 5.34616e-04 2.00000e-01 3.20000e+00 1.07903e-06 1.09545e-06 -2.00000e-01
7.00000e+00 7.17139e-04 7.18387e-04 2.00000e-01 3.00000e+00 9.60174e-07 9.59160e-07 -2.00000e-01
7.20000e+00 9.49021e-04 9.50288e-04 2.00000e-01 2.80000e+00 8.08469e-07 8.32665e-07 -2.00000e-01
7.40000e+00 1.24225e-03 1.24298e-03 2.00000e-01 2.60000e+00 6.89993e-07 7.29630e-07 -2.00000e-01
7.60000e+00 1.59766e-03 1.60001e-03 2.00000e-01 2.40000e+00 5.95247e-07 6.13431e-07 -2.00000e-01
7.80000e+00 2.03071e-03 2.03384e-03 2.00000e-01 2.20000e+00 4.95754e-07 5.21374e-07 -2.00000e-01
8.00000e+00 2.54697e-03 2.55110e-03 2.00000e-01 2.00000e+00 4.23885e-07 4.36159e-07 -2.00000e-01
8.20000e+00 3.15718e-03 3.16263e-03 2.00000e-01 1.80000e+00 3.38094e-07 3.60975e-07 -2.00000e-01
8.40000e+00 3.86726e-03 3.87467e-03 2.00000e-01 1.60000e+00 2.67263e-07 2.91041e-07 -2.00000e-01
8.60000e+00 4.68266e-03 4.69203e-03 2.00000e-01 1.40000e+00 2.13680e-07 2.39458e-07 -2.00000e-01
8.80000e+00 5.61171e-03 5.62325e-03 2.00000e-01 1.20000e+00 1.48845e-07 1.70260e-07 -2.00000e-01
9.00000e+00 6.65530e-03 6.67005e-03 2.00000e-01 1.00000e+00 1.06163e-07 1.27041e-07 -2.00000e-01
9.20000e+00 7.81769e-03 7.83556e-03 2.00000e-01 8.00000e-01 9.20572e-08 9.15667e-08 -2.00000e-01
9.40000e+00 9.09801e-03 9.11948e-03 2.00000e-01 6.00000e-01 2.46480e-08 5.96882e-08 -2.00000e-01
9.60000e+00 1.05227e-02 1.05401e-02 2.00000e-01 4.00000e-01 4.55880e-08 4.56176e-08 -2.00000e-01
9.80000e+00 1.20204e-02 1.20493e-02 2.00000e-01 2.00000e-01 -1.35853e-08 1.47033e-08 -2.00000e-01
1.00000e+01 1.36450e-02 1.36775e-02 2.00000e-01 2.05391e-15 -3.58400e-08 -3.36504e-10 -2.00000e-01
